Data from 1_15-43-59-491.txt Node
Date: Sun Mar 31 15:43:59 CEST 2019
User: Burggraaff
Spectrometer: 
Trigger mode: 4
Integration Time (sec): 8.110000E-1
Scans to average: 25
Electric dark correction enabled: true
Nonlinearity correction enabled: false
Boxcar width: 0
XAxis mode: Wavelengths
Number of Pixels in Spectrum: 2048
>>>>>Begin Spectral Data<<<<<
178.948	-57.07
179.326	-57.07
179.704	-57.07
180.082	-116.29
180.46	-112.43
180.838	431.12
181.216	-54.61
181.594	-101.79
181.972	-46.28
182.35	-109.81
182.728	-107.34
183.106	90.19
183.484	-94.85
183.861	47.78
184.239	-86.53
184.617	52.1
184.995	-82.21
185.372	-8.96
185.75	-55.69
186.128	-4.65
186.505	590.88
186.883	-28.24
187.261	-32.09
187.638	-22.38
188.016	-18.06
188.393	85.41
188.771	41.15
189.148	33.13
189.525	84.02
189.903	75.69
190.28	106.07
190.658	57.03
191.035	101.14
191.412	136.45
191.789	83.71
192.167	65.52
192.544	55.8
192.921	50.25
193.298	144.62
193.675	72.92
194.052	288.95
194.429	290.65
194.806	104.07
195.183	1186.86
195.56	202.6
195.937	155.72
196.314	168.52
196.691	147.09
197.068	75.38
197.445	185.02
197.822	78.31
198.198	80.01
198.575	231.28
198.952	75.69
199.329	145.08
199.705	89.73
200.082	149.86
200.459	218.64
200.835	85.1
201.212	78.62
201.588	76.77
201.965	230.05
202.341	171.45
202.718	163.43
203.094	211.54
203.47	92.81
203.847	82.17
204.223	61.51
204.599	844.53
204.976	131.2
205.352	162.04
205.728	499.9
206.104	93.43
206.481	137.37
206.857	64.44
207.233	145.85
207.609	71.99
207.985	83.4
208.361	100.52
208.737	71.68
209.113	71.07
209.489	138.91
209.865	300.36
210.241	90.34
210.617	93.12
210.993	420.18
211.368	162.2
211.744	1210.91
212.12	153.26
212.496	261.81
212.871	143.54
213.247	331.97
213.623	230.97
213.998	515.01
214.374	177.77
214.749	506.37
215.125	93.27
215.5	139.99
215.876	76.93
216.251	163.12
216.627	160.04
217.002	157.11
217.377	127.5
217.753	89.42
218.128	77.08
218.503	71.38
218.879	81.86
219.254	72.45
219.629	145.7
220.004	496.04
220.379	160.97
220.754	129.51
221.13	76.93
221.505	162.35
221.88	140.61
222.255	75.38
222.63	141.23
223.004	90.03
223.379	74
223.754	62.89
224.129	203.68
224.504	201.98
224.879	74
225.253	160.97
225.628	82.02
226.003	158.96
226.378	90.5
226.752	93.58
227.127	81.86
227.501	74.61
227.876	603.83
228.251	105.92
228.625	94.35
229	76
229.374	249.01
229.748	288.8
230.123	150.48
230.497	212.47
230.871	313.01
231.246	104.07
231.62	210.31
231.994	520.25
232.369	194.58
232.743	123.8
233.117	87.26
233.491	472.76
233.865	102.22
234.239	176.08
234.613	163.74
234.987	167.75
235.361	222.34
235.735	151.87
236.109	312.24
236.483	101.44
236.857	220.18
237.231	66.44
237.605	56.57
237.978	76.93
238.352	170.99
238.726	102.37
239.099	88.34
239.473	101.14
239.847	84.48
240.22	77.7
240.594	160.66
240.968	88.95
241.341	161.58
241.715	71.38
242.088	86.18
242.461	85.87
242.835	535.52
243.208	833.89
243.582	134.6
243.955	161.27
244.328	224.5
244.701	277.54
245.075	217.4
245.448	85.72
245.821	78.78
246.194	134.29
246.567	90.19
246.94	803.21
247.313	114.4
247.686	90.34
248.059	478.77
248.432	164.82
248.805	119.49
249.178	89.73
249.551	79.55
249.924	82.94
250.297	102.52
250.67	109
251.042	102.83
251.415	95.43
251.788	86.33
252.16	61.2
252.533	80.01
252.906	98.21
253.278	102.22
253.651	92.65
254.023	241.61
254.396	259.04
254.768	94.97
255.141	104.22
255.513	77.85
255.886	56.73
256.258	679.54
256.63	344.93
257.002	232.51
257.375	142.92
257.747	161.43
258.119	228.35
258.491	130.9
258.863	168.21
259.236	193.66
259.608	96.05
259.98	137.99
260.352	109.15
260.724	101.75
261.096	155.88
261.468	92.35
261.839	116.4
262.211	189.18
262.583	165.13
262.955	88.18
263.327	65.82
263.699	156.34
264.07	78.93
264.442	146.62
264.814	195.35
265.185	353.56
265.557	193.19
265.928	107.92
266.3	337.52
266.671	179.47
267.043	175.15
267.414	209.08
267.786	91.88
268.157	196.28
268.529	140.15
268.9	85.56
269.271	149.55
269.642	174.23
270.014	118.41
270.385	92.19
270.756	158.19
271.127	174.84
271.498	177.16
271.869	161.58
272.24	104.68
272.611	216.48
272.982	92.04
273.353	113.01
273.724	54.41
274.095	176.69
274.466	161.89
274.837	108.07
275.208	113.16
275.579	80.78
275.949	108.85
276.32	150.33
276.691	137.37
277.061	514.85
277.432	180.09
277.803	1104.21
278.173	147.4
278.544	155.72
278.914	124.88
279.285	156.96
279.655	246.39
280.026	243.62
280.396	92.19
280.766	103.91
281.137	141.54
281.507	508.38
281.877	106.22
282.247	88.65
282.618	150.33
282.988	204.91
283.358	99.9
283.728	828.96
284.098	254.41
284.468	169.45
284.838	457.8
285.208	152.18
285.578	169.45
285.948	1089.1
286.318	140.15
286.688	82.02
287.058	76.77
287.427	83.71
287.797	172.38
288.167	153.41
288.537	325.81
288.906	131.05
289.276	672.45
289.646	117.48
290.015	100.36
290.385	82.17
290.754	85.1
291.124	96.97
291.493	189.03
291.863	144
292.232	592.57
292.601	217.56
292.971	111.93
293.34	776.69
293.709	223.11
294.078	672.14
294.448	214.47
294.817	229.58
295.186	163.43
295.555	184.56
295.924	243.93
296.293	192.42
296.662	190.42
297.031	176.85
297.4	123.8
297.769	178.7
298.138	175.46
298.507	103.45
298.876	422.03
299.245	129.82
299.613	100.67
299.982	93.27
300.351	268.44
300.719	150.63
301.088	240.53
301.457	122.72
301.825	231.9
302.194	95.28
302.562	100.52
302.931	221.87
303.299	130.74
303.668	674.14
304.036	222.65
304.405	159.58
304.773	154.33
305.141	307.61
305.509	201.37
305.878	170.06
306.246	177
306.614	302.98
306.982	121.34
307.35	267.06
307.718	178.54
308.086	182.55
308.454	125.81
308.822	189.34
309.19	197.82
309.558	110.23
309.926	88.8
310.294	174.38
310.662	119.02
311.03	130.13
311.397	255.95
311.765	297.74
312.133	160.5
312.501	170.22
312.868	181.17
313.236	92.35
313.603	196.89
313.971	86.18
314.338	178.24
314.706	185.64
315.073	288.49
315.441	361.12
315.808	98.51
316.175	175.31
316.543	749.39
316.91	119.79
317.277	171.3
317.645	83.56
318.012	102.68
318.379	95.12
318.746	153.41
319.113	113.16
319.48	83.09
319.847	135.52
320.214	737.37
320.581	275.84
320.948	207.23
321.315	111.78
321.682	329.81
322.049	204.14
322.415	106.69
322.782	102.52
323.149	153.87
323.516	121.64
323.882	99.29
324.249	84.94
324.616	104.53
324.982	151.87
325.349	97.44
325.715	100.98
326.082	96.36
326.448	185.95
326.815	172.68
327.181	177.16
327.547	636.06
327.914	277.69
328.28	188.26
328.646	113.63
329.012	103.76
329.379	166.83
329.745	123.65
330.111	485.71
330.477	118.56
330.843	190.42
331.209	113.78
331.575	152.18
331.941	104.68
332.307	104.53
332.673	114.24
333.039	146.78
333.404	216.94
333.77	107.77
334.136	97.28
334.502	132.59
334.867	76.31
335.233	185.17
335.599	181.63
335.964	164.51
336.33	91.58
336.695	219.56
337.061	333.82
337.426	314.39
337.792	168.21
338.157	119.49
338.523	179.32
338.888	199.05
339.253	118.41
339.618	242.23
339.984	191.96
340.349	97.13
340.714	96.82
341.079	233.29
341.444	101.6
341.809	255.64
342.174	199.05
342.539	122.11
342.904	91.27
343.269	181.47
343.634	185.95
343.999	98.67
344.364	180.55
344.729	107.15
345.094	317.94
345.458	335.52
345.823	182.55
346.188	173.3
346.552	190.11
346.917	127.5
347.282	118.25
347.646	121.18
348.011	592.57
348.375	142
348.74	111.31
349.104	192.88
349.468	118.87
349.833	228.35
350.197	141.54
350.561	127.97
350.926	115.32
351.29	184.56
351.654	202.91
352.018	138.76
352.382	123.49
352.746	183.94
353.11	218.79
353.474	263.66
353.838	188.88
354.202	148.32
354.566	169.91
354.93	136.45
355.294	101.44
355.658	117.79
356.021	207.53
356.385	111.93
356.749	191.81
357.113	269.52
357.476	197.51
357.84	209.69
358.203	216.17
358.567	135.37
358.93	146.47
359.294	109.46
359.657	161.89
360.021	152.02
360.384	127.04
360.747	143.85
361.111	151.87
361.474	298.2
361.837	147.86
362.201	152.48
362.564	167.13
362.927	238.99
363.29	239.76
363.653	153.72
364.016	167.13
364.379	236.52
364.742	245.16
365.105	303.75
365.468	183.32
365.831	289.88
366.194	238.22
366.556	799.51
366.919	222.18
367.282	261.97
367.645	324.11
368.007	184.25
368.37	270.91
368.732	236.68
369.095	214.47
369.458	319.95
369.82	191.03
370.182	257.65
370.545	211.85
370.907	284.79
371.27	283.4
371.632	223.42
371.994	288.64
372.357	1001.05
372.719	236.37
373.081	224.34
373.443	325.5
373.805	311.93
374.167	285.87
374.529	383.78
374.891	407.22
375.253	297.59
375.615	564.97
375.977	283.25
376.339	365.28
376.701	321.95
377.063	279.24
377.424	277.85
377.786	290.65
378.148	541.38
378.51	315.47
378.871	318.87
379.233	396.74
379.594	328.27
379.956	352.17
380.317	422.49
380.679	404.76
381.04	370.52
381.402	512.39
381.763	507.14
382.124	379.47
382.486	456.57
382.847	517.48
383.208	480.01
383.569	402.6
383.931	521.64
384.292	418.17
384.653	590.41
385.014	444.23
385.375	435.13
385.736	462.73
386.097	452.56
386.458	488.02
386.819	1290.94
387.179	664.27
387.54	565.28
387.901	540.14
388.262	581.16
388.622	564.2
388.983	670.44
389.344	521.95
389.704	542.92
390.065	541.99
390.425	563.43
390.786	611.54
391.146	570.37
391.507	582.55
391.867	866.43
392.228	639.45
392.588	606.3
392.948	612.15
393.308	629.58
393.669	740.14
394.029	1219.24
394.389	706.22
394.749	680.16
395.109	761.42
395.469	678.77
395.829	887.71
396.189	739.52
396.549	712.23
396.909	826.03
397.269	851.78
397.629	774.37
397.988	857.18
398.348	797.35
398.708	893.11
399.068	976.53
399.427	948.46
399.787	960.49
400.146	875.07
400.506	958.64
400.866	1023.25
401.225	898.04
401.584	916.08
401.944	963.11
402.303	1007.37
402.663	964.96
403.022	980.69
403.381	1201.04
403.74	1010.61
404.1	1018.32
404.459	1121.94
404.818	1291.71
405.177	1163.57
405.536	1188.4
405.895	1400.43
406.254	1164.81
406.613	1163.11
406.972	1159.56
407.331	1224.48
407.69	1338.44
408.048	1228.8
408.407	1315.46
408.766	1368.66
409.125	1717.31
409.483	1505.74
409.842	1833.88
410.2	1665.34
410.559	1437.12
410.918	1331.04
411.276	1401.2
411.634	1528.72
411.993	2126.55
412.351	1686.16
412.71	1446.22
413.068	1450.69
413.426	1590.4
413.784	1512.22
414.143	1523.01
414.501	1577.91
414.859	1679.37
415.217	1752.46
415.575	1626.79
415.933	1670.89
416.291	1694.33
416.649	1748.15
417.007	1670.89
417.365	1951.23
417.723	1966.49
418.08	1852.39
418.438	1785.77
418.796	2356.77
419.154	1915.76
419.511	1749.07
419.869	1830.33
420.227	2824
420.584	1969.42
420.942	1953.23
421.299	2524.39
421.657	2023.39
422.014	2195.79
422.371	2161.71
422.729	2065.18
423.086	2089.08
423.443	2147.22
423.8	2191.32
424.158	2208.74
424.515	2299.57
424.872	2231.25
425.229	3147.05
425.586	2470.73
425.943	2508.2
426.3	2348.6
426.657	2236.81
427.014	2433.1
427.371	2321.46
427.728	2427.4
428.084	2451.76
428.441	2751.06
428.798	2432.64
429.155	2563.09
429.511	2553.84
429.868	2765.56
430.224	2782.52
430.581	2689.54
430.937	2786.22
431.294	2916.52
431.65	2916.83
432.007	2908.04
432.363	2689.69
432.719	2912.97
433.076	2949.98
433.432	2898.63
433.788	2917.44
434.144	3186.06
434.5	3052.52
434.857	3143.19
435.213	3140.11
435.569	3447.43
435.925	4013.34
436.281	3269.95
436.636	3429.85
436.992	3484.9
437.348	3335.33
437.704	3489.37
438.06	3425.53
438.416	3475.19
438.771	3671.48
439.127	3751.51
439.483	3449.13
439.838	3448.36
440.194	3624.45
440.549	3715.58
440.905	3679.66
441.26	4002.86
441.615	3988.36
441.971	3990.37
442.326	3894.76
442.681	3912.96
443.037	4100.16
443.392	4121.44
443.747	3730.39
444.102	3610.73
444.457	3914.04
444.812	4165.39
445.167	4145.8
445.522	3835.55
445.877	3898.93
446.232	4112.65
446.587	4311.1
446.942	4269.47
447.297	4022.29
447.652	4343.33
448.006	4211.95
448.361	4548.57
448.716	4245.11
449.07	4417.5
449.425	4464.22
449.78	4608.71
450.134	4596.07
450.489	4506.01
450.843	4308.17
451.197	4740.24
451.552	5371.23
451.906	4657.13
452.26	4813.49
452.615	4792.67
452.969	4615.03
453.323	4613.64
453.677	5177.86
454.031	5493.51
454.385	5844.47
454.739	5504.77
455.093	5275.01
455.447	5005.62
455.801	5566.29
456.155	5694.9
456.509	5845.55
456.863	5231.06
457.217	5786.8
457.57	5630.9
457.924	5630.13
458.278	5675.16
458.631	5397.6
458.985	5504.46
459.338	5493.66
459.692	5728.66
460.045	6186.79
460.399	6041.07
460.752	5970.76
461.105	6083.79
461.459	5745.32
461.812	5957.19
462.165	6368.75
462.519	6425.19
462.872	6612.54
463.225	6675.3
463.578	6512.93
463.931	6730.35
464.284	6663.58
464.637	6757.33
464.99	6980.31
465.343	6907.37
465.696	7184
466.048	6878.53
466.401	7248.46
466.754	7486.54
467.107	7398.03
467.459	7055.25
467.812	7679.6
468.165	7612.06
468.517	7973.2
468.87	8383.99
469.222	8074.97
469.575	8629.17
469.927	8499.48
470.279	8743.27
470.632	8641.81
470.984	9141.27
471.336	8643.04
471.689	8987.37
472.041	9150.36
472.393	9380.28
472.745	9881.12
473.097	9845.5
473.449	9812.65
473.801	10005.71
474.153	10372.4
474.505	10474.79
474.857	10010.64
475.209	11142.16
475.56	10855.04
475.912	10970.85
476.264	11060.75
476.616	11262.59
476.967	11462.9
477.319	11762.51
477.67	12300.05
478.022	12199.51
478.373	12582.7
478.725	12584.55
479.076	12410.46
479.428	12412
479.779	12710.07
480.13	13245.45
480.482	13563.57
480.833	13829.87
481.184	13941.05
481.535	13936.89
481.886	15123.61
482.237	14296.94
482.588	14427.09
482.939	14650.21
483.29	15058.38
483.641	15084.44
483.992	16055.28
484.343	15969.24
484.694	16071.78
485.045	16028.76
485.395	16535.62
485.746	16309.56
486.097	16936.23
486.447	17037.38
486.798	17334.68
487.148	17571.84
487.499	17453.72
487.849	18018.4
488.2	18316.01
488.55	18192.03
488.9	18202.83
489.251	18499.82
489.601	18341.92
489.951	18723.87
490.301	18738.83
490.652	18987.24
491.002	19187.55
491.352	19363.65
491.702	19203.12
492.052	19472.67
492.402	19867.73
492.752	20088.54
493.101	20131.56
493.451	20070.65
493.801	20752.06
494.151	20786.91
494.501	20598.79
494.85	20649.37
495.2	20696.4
495.549	20853.06
495.899	21056.76
496.249	21372.72
496.598	21773.64
496.948	22088.82
497.297	21982.42
497.646	21987.82
497.996	22272.32
498.345	22107.48
498.694	21909.8
499.043	21843.64
499.393	22024.06
499.742	21937.4
500.091	22012.65
500.44	22247.49
500.789	22383.34
501.138	22388.74
501.487	23061.21
501.836	22922.12
502.184	22784.88
502.533	23011.56
502.882	22793.52
503.231	23220.96
503.58	23341.85
503.928	23180.87
504.277	23514.25
504.625	23674.15
504.974	24170.52
505.322	24351.71
505.671	24022.03
506.019	23855.95
506.368	24015.4
506.716	23986.1
507.064	24574.37
507.413	24703.75
507.761	24947.07
508.109	25005.52
508.457	24912.69
508.805	25473.51
509.153	25561.1
509.501	25748.76
509.849	25114.69
510.197	25214.76
510.545	25789.62
510.893	25930.41
511.241	26292.93
511.589	26525.46
511.936	26239.89
512.284	26842.35
512.632	26687.22
512.979	26536.88
513.327	26880.74
513.675	27274.11
514.022	27067.94
514.37	27332.08
514.717	27153.21
515.064	27541.18
515.412	27593.3
515.759	27976.49
516.106	28198.38
516.454	28231.07
516.801	29011.48
517.148	29056.5
517.495	29231.06
517.842	29230.29
518.189	29911.85
518.536	30204.52
518.883	29724.96
519.23	29561.82
519.577	30039.07
519.924	30086.41
520.271	30335.75
520.617	30753.63
520.964	30884.08
521.311	30657.41
521.657	30461.11
522.004	30689.33
522.35	30848.15
522.697	30883.16
523.043	31447.68
523.39	31687.77
523.736	32062.02
524.083	32594.16
524.429	32400.95
524.775	32880.97
525.121	32822.38
525.468	32610.35
525.814	33031.93
526.16	33453.52
526.506	33569.47
526.852	33208.34
527.198	34132.15
527.544	34106.86
527.89	33774.41
528.236	33930.3
528.582	34071.86
528.927	33615.73
529.273	34162.99
529.619	34039.48
529.965	33688.52
530.31	33862.15
530.656	34569.46
531.001	34408.32
531.347	34414.95
531.692	34296.84
532.038	34669.08
532.383	34797.22
532.728	34643.79
533.074	34510.4
533.419	34208.33
533.764	34132.61
534.109	34690.51
534.455	34744.02
534.8	35333.83
535.145	35234.22
535.49	35055.96
535.835	35266.6
536.18	35259.82
536.525	35500.68
536.869	35418.95
537.214	35665.98
537.559	36050.24
537.904	35846.7
538.248	36207.37
538.593	36203.67
538.938	36199.82
539.282	36253.79
539.627	36439.75
539.971	36203.21
540.316	36879.22
540.66	36739.67
541.005	38018.14
541.349	37419.39
541.693	37100.19
542.037	37609.82
542.382	37267.04
542.726	37702.5
543.07	37788.7
543.414	37437.27
543.758	37785.3
544.102	38907.42
544.446	38490.77
544.79	38991.92
545.134	38823.99
545.478	38413.36
545.821	38237.73
546.165	38295.24
546.509	38568.95
546.853	38726.39
547.196	38845.58
547.54	39022.14
547.883	39020.44
548.227	39092.46
548.57	38361.39
548.914	38462.86
549.257	38821.53
549.601	39303.09
549.944	38800.4
550.287	38727
550.63	38549.67
550.973	38846.97
551.317	39758.29
551.66	39323.45
552.003	38936.87
552.346	39270.71
552.689	39124.84
553.032	39553.82
553.375	40206.71
553.717	40254.66
554.06	40211.79
554.403	40027.68
554.746	40038.63
555.088	40074.71
555.431	39863.92
555.774	40313.57
556.116	40906.16
556.459	41000.37
556.801	41734.36
557.144	40974.16
557.486	41125.89
557.828	41278.55
558.171	40526.21
558.513	40103.24
558.855	40827.98
559.197	40706.01
559.54	41020.42
559.882	41665.28
560.224	41455.11
560.566	40952.26
560.908	40374.78
561.25	40494.13
561.592	40460.21
561.933	41193.59
562.275	41419.95
562.617	40946.87
562.959	41262.2
563.3	40223.2
563.642	40791.12
563.984	41294.28
564.325	41779.55
564.667	41920.02
565.008	42069.75
565.35	42014.39
565.691	42373.52
566.032	41771.84
566.374	41300.91
566.715	41445.7
567.056	41223.19
567.397	41444.47
567.739	42089.02
568.08	41886.25
568.421	42182.32
568.762	41032.75
569.103	41600.83
569.444	41982.94
569.784	41441.38
570.125	41940.53
570.466	41588.95
570.807	41917.71
571.148	42583.54
571.488	42381.39
571.829	42223.02
572.17	42095.04
572.51	41730.05
572.851	42826.87
573.191	42486.86
573.532	42711.68
573.872	43043.52
574.212	42676.84
574.553	42685.32
574.893	43017.93
575.233	43047.69
575.573	42833.5
575.913	43025.94
576.253	42471.29
576.593	42369.98
576.933	42307.99
577.273	42837.82
577.613	43034.12
577.953	43331.26
578.293	43625.01
578.633	42959.48
578.973	43715.37
579.312	43472.2
579.652	43511.37
579.992	44007.89
580.331	43549.61
580.671	43211.14
581.01	43467.73
581.35	43310.6
581.689	44009.59
582.028	44160.39
582.368	45277.26
582.707	44506.88
583.046	44392.77
583.385	44253.38
583.725	44530.32
584.064	44407.11
584.403	43629.02
584.742	44708.88
585.081	44410.97
585.42	44852.44
585.759	45189.22
586.098	45602.93
586.436	44624.54
586.775	44357.92
587.114	44603.41
587.453	45111.81
587.791	45006.95
588.13	45435.78
588.468	46292.67
588.807	45708.72
589.145	46041.94
589.484	45506.41
589.822	46022.82
590.161	46102.23
590.499	45281.12
590.837	44549.75
591.175	45121.21
591.513	45335.24
591.852	45313.81
592.19	44855.37
592.528	45390.45
592.866	45975.02
593.204	46569.92
593.542	46102.39
593.879	46022.82
594.217	45999.38
594.555	46532.91
594.893	46758.05
595.231	46747.56
595.568	47170.07
595.906	45868.78
596.243	45755.44
596.581	46053.04
596.918	46926.12
597.256	46624.66
597.593	46745.09
597.931	46919.8
598.268	47415.09
598.605	47718.56
598.942	47442.39
599.28	46795.52
599.617	45981.65
599.954	45590.91
600.291	46370.54
600.628	46544.63
600.965	46498.68
601.302	47910.38
601.639	46674.47
601.975	47347.71
602.312	47348.02
602.649	47185.49
602.986	47245.94
603.322	46746.79
603.659	45783.66
603.996	46056.59
604.332	46717.34
604.669	47621.26
605.005	47218.8
605.341	46914.87
605.678	46709.94
606.014	46579.95
606.35	46555.89
606.687	46033.15
607.023	45925.52
607.359	45819.43
607.695	46806.47
608.031	46964.52
608.367	46954.5
608.703	46928.28
609.039	47370.99
609.375	46938.61
609.711	46934.45
610.046	46735.69
610.382	46491.28
610.718	46311.02
611.054	47377.47
611.389	48001.67
611.725	47141.39
612.06	47429.13
612.396	46714.41
612.731	46185.5
613.067	46550.65
613.402	46603.38
613.737	47177.01
614.073	47690.8
614.408	47985.94
614.743	48056.26
615.078	47885.71
615.413	47685.1
615.748	48676.45
616.083	48218.01
616.418	47152.49
616.753	47311.47
617.088	48048.39
617.423	48664.42
617.758	48117.94
618.092	48611.07
618.427	50147.52
618.762	49871.19
619.096	49496.02
619.431	48773.44
619.765	49133.5
620.1	50852.83
620.434	51275.8
620.769	50762.93
621.103	50057.46
621.437	50735.33
621.772	50837.56
622.106	50249.75
622.44	50418.91
622.774	50572.95
623.108	49984.68
623.442	50484.29
623.776	50208.73
624.11	50886.6
624.444	51289.37
624.778	51967.85
625.112	51489.37
625.445	51179.42
625.779	51178.65
626.113	51644.8
626.446	51799.62
626.78	51750.12
627.114	51855.28
627.447	51859.75
627.781	51656.21
628.114	50747.97
628.447	50738.1
628.781	50615.98
629.114	51005.64
629.447	49943.66
629.78	50372.65
630.113	50521.91
630.447	50402.87
630.78	51052.21
631.113	50709.11
631.446	50023.85
631.779	51089.06
632.111	51657.44
632.444	50734.09
632.777	50141.81
633.11	50513.9
633.442	51552.12
633.775	51984.66
634.108	50889.53
634.44	50877.04
634.773	49726.86
635.105	49573.74
635.438	50083.37
635.77	50933.01
636.102	49622.93
636.435	50315.29
636.767	50507.88
637.099	50906.49
637.431	50723.15
637.763	50246.05
638.096	50157.23
638.428	50341.19
638.76	50068.41
639.091	50025.54
639.423	50057.62
639.755	49789
640.087	49779.9
640.419	49296.02
640.75	49605.35
641.082	49141.67
641.414	48844.22
641.745	49925.31
642.077	51034.01
642.408	50056.85
642.74	50046.52
643.071	50262.4
643.403	50814.59
643.734	49908.51
644.065	49912.36
644.396	49575.28
644.728	50040.96
645.059	51114.35
645.39	50401.02
645.721	50339.03
646.052	50369.87
646.383	50600.4
646.714	50778.97
647.044	49804.58
647.375	49869.8
647.706	49968.95
648.037	48999.96
648.367	49381.76
648.698	48938.28
649.029	49156.63
649.359	48480.92
649.69	48345.69
650.02	49064.72
650.351	48915
650.681	49261.64
651.011	48957.09
651.341	48924.56
651.672	49337.66
652.002	48916.54
652.332	48974.05
652.662	49259.17
652.992	49335.65
653.322	49028.18
653.652	48938.43
653.982	47919.79
654.312	47694.19
654.642	46957.58
654.971	47901.9
655.301	48677.07
655.631	48766.66
655.96	48468.74
656.29	48465.5
656.62	47533.36
656.949	47064.9
657.278	47580.4
657.608	48163.43
657.937	47580.86
658.267	47304.99
658.596	47777.62
658.925	48028.65
659.254	47834.36
659.583	48340.45
659.912	47507.92
660.241	47019.42
660.57	47586.1
660.899	47818.94
661.228	47467.37
661.557	47210.78
661.886	47184.87
662.215	47391.35
662.543	48492.33
662.872	48794.87
663.201	48935.81
663.529	48189.18
663.858	48031.74
664.186	48170.83
664.515	47777.77
664.843	47243.47
665.171	46531.68
665.5	46112.87
665.828	46650.72
666.156	47290.04
666.484	46311.33
666.812	46456.12
667.141	46830.52
667.469	47426.2
667.797	48057.64
668.124	46790.27
668.452	46585.81
668.78	46341.24
669.108	45295.31
669.436	46498.99
669.763	46393.83
670.091	46771
670.419	46614.95
670.746	46406.78
671.074	45827.14
671.401	46322.12
671.729	46314.26
672.056	46296.99
672.383	45782.89
672.711	45043.96
673.038	45425.6
673.365	45907.17
673.692	44838.87
674.019	45303.63
674.346	45317.97
674.673	45063.54
675	44728.47
675.327	45945.57
675.654	46224.05
675.981	44993.84
676.308	44716.9
676.634	44936.64
676.961	44499.79
677.288	44537.57
677.614	43949.45
677.941	44595.7
678.267	45445.96
678.594	45059.84
678.92	44513.05
679.247	44058.62
679.573	43429.02
679.899	44245.67
680.225	43428.71
680.552	43566.72
680.878	43946.67
681.204	44018.99
681.53	43117.23
681.856	43716.61
682.182	43667.42
682.508	43689
682.833	43508.74
683.159	42602.97
683.485	43309.52
683.811	43469.27
684.136	43450.61
684.462	43971.65
684.787	43436.27
685.113	42340.22
685.438	43224.25
685.764	42285.32
686.089	42354.09
686.415	42357.64
686.74	42268.05
687.065	42252.32
687.39	42489.48
687.715	41890.26
688.04	41899.2
688.365	42364.73
688.69	42692.26
689.015	41500.14
689.34	41456.5
689.665	41435.53
689.99	41587.26
690.315	40975.24
690.639	39698.15
690.964	40149.65
691.289	40144.25
691.613	40686.11
691.938	40557.05
692.262	40822.43
692.587	40460.52
692.911	40047.88
693.235	41003.77
693.56	40505.85
693.884	40043.25
694.208	40243.41
694.532	39764.46
694.856	40475.48
695.181	39583.27
695.505	40139.32
695.828	40545.33
696.152	40557.05
696.476	39370.94
696.8	38595.93
697.124	38986.37
697.448	39066.7
697.771	40273.01
698.095	40545.64
698.418	40831.37
698.742	40254.66
699.065	39276.11
699.389	39124.84
699.712	38910.5
700.036	39296
700.359	38871.18
700.682	38166.95
701.005	37877.51
701.329	38810.58
701.652	39625.06
701.975	39553.05
702.298	39824.6
702.621	38616.44
702.944	38875.34
703.266	38455.3
703.589	38544.28
703.912	38435.72
704.235	38124.85
704.557	38507.42
704.88	38583.6
705.203	38224
705.525	39032.47
705.848	38232.95
706.17	37804.73
706.492	37768.5
706.815	37490.78
707.137	37143.68
707.459	37093.56
707.782	37385.31
708.104	38373.11
708.426	39100.47
708.748	39495.38
709.07	38116.52
709.392	38017.37
709.714	37644.67
710.036	37770.04
710.357	36803.97
710.679	35965.43
711.001	36181.01
711.323	36249.16
711.644	36024.03
711.966	36022.33
712.287	35346.63
712.609	35473.54
712.93	35373
713.252	35322.73
713.573	35524.27
713.894	35637.76
714.215	35981.32
714.537	36083.86
714.858	35898.82
715.179	35305.77
715.5	35686.33
715.821	36004.91
716.142	35494.51
716.463	35743.69
716.784	35481.86
717.104	36070.91
717.425	36296.66
717.746	35837.14
718.066	35936.44
718.387	35773.92
718.708	35430.36
719.028	35532.29
719.349	35527.04
719.669	34981.48
719.989	34390.9
720.31	35025.12
720.63	35179.32
720.95	34649.95
721.27	34483.57
721.591	33449.2
721.911	32983.98
722.231	33693.61
722.551	33722.29
722.871	34461.21
723.19	34977.01
723.51	34496.37
723.83	34080.34
724.15	33271.41
724.47	33175.8
724.789	32441.81
725.109	32535.26
725.428	32695.32
725.748	33197.54
726.067	32996.01
726.387	32647.05
726.706	32667.87
727.025	32786.14
727.345	32196.63
727.664	31922.62
727.983	31157.02
728.302	31445.06
728.621	31751.77
728.94	31430.72
729.259	31093.64
729.578	31677.9
729.897	31346.84
730.216	31390.01
730.534	31597.57
730.853	31077.6
731.172	30400.82
731.49	30882.23
731.809	31106.59
732.127	30364.89
732.446	31385.85
732.764	31559.79
733.083	31156.24
733.401	31386.77
733.719	32237.8
734.038	30783.85
734.356	30679.46
734.674	30357.49
734.992	30221.64
735.31	30392.34
735.628	30685.47
735.946	30747.31
736.264	30876.53
736.582	30191.42
736.899	29310.32
737.217	29571.38
737.535	29095.98
737.852	30110
738.17	29260.97
738.488	29209.78
738.805	29206.85
739.122	28655.43
739.44	28422.28
739.757	28643.56
740.075	28671.77
740.392	29226.89
740.709	29617.64
741.026	29403.92
741.343	28601.31
741.66	28419.97
741.977	27899.7
742.294	27756.75
742.611	27504.94
742.928	27307.72
743.245	27377.42
743.561	27431.54
743.878	27787.44
744.195	27545.5
744.511	27167.09
744.828	26983.9
745.144	26240.5
745.461	26003.96
745.777	26051.45
746.094	26140.12
746.41	26184.84
746.726	26242.05
747.042	26572.65
747.359	26156.31
747.675	25578.37
747.991	25764.03
748.307	26112.05
748.623	26059.01
748.939	26267.18
749.254	26028.63
749.57	25799.8
749.886	25522.09
750.202	25580.84
750.517	26036.65
750.833	25710.67
751.149	25450.84
751.464	25736.42
751.78	25358.63
752.095	25104.97
752.41	25075.52
752.726	25310.06
753.041	25590.7
753.356	25449.77
753.671	25739.66
753.986	26283.22
754.301	26264.4
754.616	26178.98
754.931	26181.75
755.246	25859.32
755.561	26344.9
755.876	26656.38
756.191	27334.09
756.505	26696.47
756.82	26443.89
757.135	27855.29
757.449	27804.86
757.764	26856.84
758.078	26499.25
758.393	26147.37
758.707	26030.17
759.021	25430.03
759.336	25706.2
759.65	26293.39
759.964	26947.2
760.278	27333.47
760.592	26596.09
760.906	26873.19
761.22	26978.2
761.534	26724.07
761.848	26962.78
762.162	26677.51
762.475	26366.48
762.789	26896.01
763.103	26759.54
763.416	26170.5
763.73	26794.24
764.044	26289.08
764.357	26391.93
764.67	26071.96
764.984	25961.4
765.297	25292.79
765.61	26318.53
765.923	26761.7
766.237	25887.54
766.55	26042.82
766.863	25567.42
767.176	25511.29
767.489	25889.54
767.802	26284.3
768.115	25977.9
768.427	25883.84
768.74	25913.29
769.053	25395.95
769.365	25573.28
769.678	25254.24
769.991	24670.28
770.303	23986.25
770.616	23977.93
770.928	23826.66
771.24	23519.03
771.553	24197.2
771.865	24153.25
772.177	24002.6
772.489	23656.11
772.801	23376.24
773.113	23872.15
773.425	22864.45
773.737	22415.88
774.049	22678.48
774.361	22499.77
774.673	22558.05
774.984	22589.66
775.296	21572.1
775.608	21411.27
775.919	21023.3
776.231	20959.77
776.542	21010.35
776.854	21268.94
777.165	21027.93
777.477	20511.82
777.788	20283.14
778.099	20379.36
778.41	21002.17
778.721	20699.02
779.032	20158.7
779.343	20621.46
779.654	20202.96
779.965	19701.04
780.276	19852.31
780.587	19747.3
780.898	19859.86
781.208	20013.29
781.519	19295.64
781.83	18954.86
782.14	18953.01
782.451	18719.09
782.761	18679.61
783.072	18268.98
783.382	18064.82
783.692	18301.67
784.003	18550.7
784.313	18710.76
784.623	18479
784.933	18190.03
785.243	17690.73
785.553	17726.97
785.863	17444.94
786.173	16985.73
786.483	17107.85
786.793	16930.37
787.102	16430.3
787.412	16041.25
787.722	16318.2
788.031	16648.65
788.341	16639.24
788.65	16195.61
788.96	16389.59
789.269	16631.22
789.578	16837.85
789.888	16438.01
790.197	16061.76
790.506	15933.78
790.815	15662.85
791.124	15299.09
791.433	15503.71
791.742	15152.6
792.051	15305.56
792.36	15393.46
792.669	15238.33
792.978	15095.54
793.286	15170.95
793.595	14969.87
793.904	14917.44
794.212	16399.61
794.521	14582.37
794.829	14483.99
795.138	14729.78
795.446	14930.09
795.754	14349.52
796.063	14863.78
796.371	14528.4
796.679	14337.81
796.987	14185.76
797.295	13807.82
797.603	14014.91
797.911	14762.47
798.219	14075.51
798.527	13719.77
798.834	13625.56
799.142	13945.06
799.45	13535.97
799.757	13217.39
800.065	13016.16
800.373	13022.79
800.68	13170.67
800.987	12936.44
801.295	13081.54
801.602	12927.34
801.909	12966.35
802.217	12901.89
802.524	12657.64
802.831	12129.66
803.138	12194.73
803.445	12647.16
803.752	12537.67
804.059	12629.73
804.366	12095.12
804.672	11944.47
804.979	12024.96
805.286	12560.8
805.592	12280.93
805.899	11673.07
806.206	11791.65
806.512	12081.4
806.819	11989.8
807.125	12452.71
807.431	11749.56
807.737	11286.5
808.044	11233.76
808.35	11232.68
808.656	11317.64
808.962	10860.29
809.268	11014.49
809.574	11308.7
809.88	11492.82
810.186	11330.6
810.492	11462.59
810.797	10950.19
811.103	11024.66
811.409	10857.2
811.714	11240.85
812.02	11102.23
812.325	10785.04
812.631	10485.43
812.936	10291.75
813.241	10414.34
813.547	10544.02
813.852	10649.5
814.157	10555.9
814.462	10646.57
814.767	11043.48
815.072	10489.74
815.377	10669.7
815.682	10491.44
815.987	10026.22
816.292	9597.85
816.596	9680.66
816.901	9723.68
817.206	9783.97
817.51	9524.45
817.815	9338.95
818.119	9401.25
818.424	9435.79
818.728	9340.49
819.033	9679.58
819.337	10454.43
819.641	9674.33
819.945	9424.53
820.249	9537.1
820.553	9468.01
820.857	9324.45
821.161	9088.84
821.465	9125.07
821.769	8958.85
822.073	9056.15
822.377	9127.23
822.68	8945.28
822.984	8889.46
823.288	8894.55
823.591	8977.5
823.895	8580.13
824.198	8804.03
824.501	8724
824.805	8661.09
825.108	8624.85
825.411	8582.6
825.714	8545.74
826.017	8314.75
826.32	8385.38
826.623	8369.34
826.926	8631.17
827.229	8686.22
827.532	8330.79
827.835	8434.26
828.138	8175.51
828.44	8270.81
828.743	8203.27
829.046	8200.65
829.348	8504.73
829.651	8574.43
829.953	7959.01
830.255	7891.78
830.558	7932.8
830.86	7813.29
831.162	7672.66
831.464	7652
831.766	7848.61
832.068	7994.33
832.37	7430.57
832.672	7409.44
832.974	7735.27
833.276	7559.17
833.578	7468.66
833.879	7421.01
834.181	7117.7
834.483	7356.55
834.784	7099.19
835.086	7103.05
835.387	7260.64
835.689	7249.85
835.99	7191.25
836.291	7124.95
836.593	7023.94
836.894	7160.72
837.195	7161.95
837.496	7149.93
837.797	7073.29
838.098	6832.12
838.399	6967.66
838.7	6853.25
839.001	6627.81
839.301	6686.09
839.602	6569.52
839.903	6632.74
840.203	6815.47
840.504	6718.17
840.804	6398.36
841.105	6280.39
841.405	6477.15
841.705	6490.57
842.006	6341.76
842.306	6853.71
842.606	6049.09
842.906	6273.76
843.206	6155.95
843.506	6291.8
843.806	6004.53
844.106	5854.95
844.406	5876.08
844.706	5809.16
845.005	5903.22
845.305	5834.14
845.605	5833.37
845.904	5572.61
846.204	5634.76
846.503	5502.92
846.803	5533.6
847.102	5437.07
847.401	5365.68
847.7	5366.29
848	5530.06
848.299	5618.41
848.598	5547.33
848.897	6084.87
849.196	5581.56
849.495	5548.1
849.794	5535.14
850.092	5488.88
850.391	6051.87
850.69	5806.07
850.989	5390.35
851.287	5320.34
851.586	5452.8
851.884	5243.09
852.183	5306
852.481	5291.05
852.779	5190.82
853.078	5028.75
853.376	5134.07
853.674	5247.87
853.972	5067.3
854.27	4872.85
854.568	4820.43
854.866	5152.11
855.164	5018.11
855.462	4982.34
855.76	4908.63
856.057	4801.61
856.355	4849.26
856.653	4854.51
856.95	4883.03
857.248	4742.25
857.545	4590.05
857.842	4557.36
858.14	4584.35
858.437	4632.77
858.734	4544.41
859.031	4580.95
859.329	4446.8
859.626	4497.22
859.923	4454.2
860.22	4398.84
860.516	4515.57
860.813	4590.36
861.11	4474.25
861.407	4414.11
861.704	4419.2
862	4397.3
862.297	4342.25
862.593	4792.67
862.89	4446.49
863.186	4249.58
863.482	4108.18
863.779	4111.88
864.075	4295.99
864.371	4185.12
864.667	4057.45
864.963	3999.62
865.259	4129.3
865.555	3887.05
865.851	3935.32
866.147	4016.12
866.443	3740.72
866.739	3720.98
867.034	3899.7
867.33	3756.45
867.626	3846.35
867.921	3747.19
868.217	3693.07
868.512	4132.23
868.807	3745.19
869.103	3782.97
869.398	3705.41
869.693	4011.96
869.988	3709.26
870.283	3571.87
870.578	3585.44
870.873	4166.31
871.168	3501.4
871.463	3650.36
871.758	3357.99
872.053	3318.67
872.347	3375.26
872.642	3255.91
872.937	3290.76
873.231	3290.45
873.526	3301.71
873.82	3207.8
874.114	3164.01
874.409	3347.35
874.703	3388.06
874.997	3316.67
875.291	3170.33
875.585	3430.93
875.879	3051.44
876.173	3150.6
876.467	3073.96
876.761	2993.62
